channel,0,1
counts,4013122,0
dt,1.292719675,0.0
time,50.0,50.0
centre,59804.7851562,100000.0
fwhm,206.227183342,5.90423354879
0.0,53111,0
50.0,53031,0
100.0,52441,0
150.0,50548,0
200.0,47905,0
250.0,43764,0
300.0,38539,0
350.0,32421,0
400.0,26007,0
450.0,19582,0
500.0,14135,0
550.0,9743,0
600.0,6493,0
650.0,4458,0
700.0,3177,0
750.0,2457,0
800.0,2102,0
850.0,1902,0
900.0,1739,0
950.0,1694,0
1000.0,1698,0
1050.0,1654,0
1100.0,1645,0
1150.0,1565,0
1200.0,1612,0
1250.0,1547,0
1300.0,1538,0
1350.0,1593,0
1400.0,1588,0
1450.0,1530,0
1500.0,1527,0
1550.0,1511,0
1600.0,1568,0
1650.0,1515,0
1700.0,1568,0
1750.0,1513,0
1800.0,1511,0
1850.0,1466,0
1900.0,1444,0
1950.0,1460,0
2000.0,1421,0
2050.0,1420,0
2100.0,1439,0
2150.0,1337,0
2200.0,1386,0
2250.0,1261,0
2300.0,1235,0
2350.0,1201,0
2400.0,1220,0
2450.0,1169,0
2500.0,1136,0
2550.0,1063,0
2600.0,1058,0
2650.0,1004,0
2700.0,922,0
2750.0,903,0
2800.0,887,0
2850.0,811,0
2900.0,763,0
2950.0,773,0
3000.0,700,0
3050.0,645,0
3100.0,652,0
3150.0,664,0
3200.0,620,0
3250.0,584,0
3300.0,545,0
3350.0,528,0
3400.0,545,0
3450.0,540,0
3500.0,518,0
3550.0,558,0
3600.0,541,0
3650.0,506,0
3700.0,490,0
3750.0,512,0
3800.0,513,0
3850.0,557,0
3900.0,537,0
3950.0,594,0
4000.0,549,0
4050.0,516,0
4100.0,541,0
4150.0,504,0
4200.0,536,0
4250.0,490,0
4300.0,485,0
4350.0,468,0
4400.0,475,0
4450.0,449,0
4500.0,410,0
4550.0,433,0
4600.0,398,0
4650.0,436,0
4700.0,419,0
4750.0,420,0
4800.0,392,0
4850.0,388,0
4900.0,375,0
4950.0,364,0
5000.0,338,0
5050.0,319,0
5100.0,329,0
5150.0,311,0
5200.0,316,0
5250.0,314,0
5300.0,278,0
5350.0,245,0
5400.0,248,0
5450.0,232,0
5500.0,231,0
5550.0,228,0
5600.0,206,0
5650.0,190,0
5700.0,177,0
5750.0,180,0
5800.0,153,0
5850.0,167,0
5900.0,167,0
5950.0,137,0
6000.0,135,0
6050.0,140,0
6100.0,127,0
6150.0,145,0
6200.0,108,0
6250.0,112,0
6300.0,120,0
6350.0,108,0
6400.0,117,0
6450.0,101,0
6500.0,115,0
6550.0,122,0
6600.0,144,0
6650.0,106,0
6700.0,130,0
6750.0,119,0
6800.0,116,0
6850.0,129,0
6900.0,114,0
6950.0,114,0
7000.0,133,0
7050.0,146,0
7100.0,118,0
7150.0,112,0
7200.0,133,0
7250.0,137,0
7300.0,113,0
7350.0,155,0
7400.0,118,0
7450.0,131,0
7500.0,153,0
7550.0,157,0
7600.0,153,0
7650.0,153,0
7700.0,145,0
7750.0,149,0
7800.0,146,0
7850.0,150,0
7900.0,136,0
7950.0,154,0
8000.0,162,0
8050.0,155,0
8100.0,155,0
8150.0,164,0
8200.0,158,0
8250.0,180,0
8300.0,166,0
8350.0,157,0
8400.0,156,0
8450.0,152,0
8500.0,175,0
8550.0,163,0
8600.0,195,0
8650.0,179,0
8700.0,174,0
8750.0,186,0
8800.0,187,0
8850.0,192,0
8900.0,178,0
8950.0,202,0
9000.0,202,0
9050.0,199,0
9100.0,206,0
9150.0,186,0
9200.0,195,0
9250.0,223,0
9300.0,195,0
9350.0,205,0
9400.0,213,0
9450.0,211,0
9500.0,213,0
9550.0,210,0
9600.0,197,0
9650.0,217,0
9700.0,205,0
9750.0,222,0
9800.0,201,0
9850.0,218,0
9900.0,228,0
9950.0,227,0
10000.0,234,0
10050.0,204,0
10100.0,229,0
10150.0,246,0
10200.0,223,0
10250.0,216,0
10300.0,233,0
10350.0,233,0
10400.0,230,0
10450.0,244,0
10500.0,228,0
10550.0,225,0
10600.0,215,0
10650.0,242,0
10700.0,230,0
10750.0,237,0
10800.0,260,0
10850.0,258,0
10900.0,251,0
10950.0,240,0
11000.0,241,0
11050.0,265,0
11100.0,242,0
11150.0,199,0
11200.0,226,0
11250.0,217,0
11300.0,193,0
11350.0,202,0
11400.0,208,0
11450.0,227,0
11500.0,219,0
11550.0,216,0
11600.0,206,0
11650.0,218,0
11700.0,194,0
11750.0,208,0
11800.0,185,0
11850.0,212,0
11900.0,194,0
11950.0,206,0
12000.0,177,0
12050.0,184,0
12100.0,190,0
12150.0,166,0
12200.0,171,0
12250.0,160,0
12300.0,190,0
12350.0,170,0
12400.0,180,0
12450.0,155,0
12500.0,152,0
12550.0,189,0
12600.0,162,0
12650.0,144,0
12700.0,153,0
12750.0,153,0
12800.0,150,0
12850.0,137,0
12900.0,145,0
12950.0,118,0
13000.0,149,0
13050.0,144,0
13100.0,134,0
13150.0,134,0
13200.0,132,0
13250.0,138,0
13300.0,126,0
13350.0,140,0
13400.0,148,0
13450.0,136,0
13500.0,137,0
13550.0,115,0
13600.0,113,0
13650.0,95,0
13700.0,124,0
13750.0,107,0
13800.0,124,0
13850.0,117,0
13900.0,112,0
13950.0,123,0
14000.0,124,0
14050.0,113,0
14100.0,108,0
14150.0,119,0
14200.0,120,0
14250.0,123,0
14300.0,95,0
14350.0,113,0
14400.0,110,0
14450.0,99,0
14500.0,124,0
14550.0,112,0
14600.0,95,0
14650.0,81,0
14700.0,89,0
14750.0,106,0
14800.0,126,0
14850.0,89,0
14900.0,84,0
14950.0,106,0
15000.0,87,0
15050.0,97,0
15100.0,71,0
15150.0,80,0
15200.0,101,0
15250.0,92,0
15300.0,86,0
15350.0,90,0
15400.0,78,0
15450.0,75,0
15500.0,96,0
15550.0,75,0
15600.0,65,0
15650.0,73,0
15700.0,57,0
15750.0,60,0
15800.0,64,0
15850.0,58,0
15900.0,56,0
15950.0,59,0
16000.0,72,0
16050.0,70,0
16100.0,51,0
16150.0,62,0
16200.0,58,0
16250.0,58,0
16300.0,62,0
16350.0,53,0
16400.0,48,0
16450.0,57,0
16500.0,56,0
16550.0,53,0
16600.0,49,0
16650.0,56,0
16700.0,46,0
16750.0,49,0
16800.0,40,0
16850.0,45,0
16900.0,42,0
16950.0,42,0
17000.0,33,0
17050.0,46,0
17100.0,31,0
17150.0,45,0
17200.0,50,0
17250.0,42,0
17300.0,46,0
17350.0,55,0
17400.0,43,0
17450.0,43,0
17500.0,43,0
17550.0,43,0
17600.0,46,0
17650.0,48,0
17700.0,35,0
17750.0,44,0
17800.0,33,0
17850.0,52,0
17900.0,28,0
17950.0,38,0
18000.0,31,0
18050.0,37,0
18100.0,41,0
18150.0,49,0
18200.0,48,0
18250.0,31,0
18300.0,42,0
18350.0,43,0
18400.0,39,0
18450.0,35,0
18500.0,38,0
18550.0,34,0
18600.0,23,0
18650.0,37,0
18700.0,33,0
18750.0,45,0
18800.0,40,0
18850.0,29,0
18900.0,39,0
18950.0,38,0
19000.0,45,0
19050.0,30,0
19100.0,34,0
19150.0,41,0
19200.0,34,0
19250.0,29,0
19300.0,38,0
19350.0,26,0
19400.0,29,0
19450.0,31,0
19500.0,42,0
19550.0,34,0
19600.0,34,0
19650.0,36,0
19700.0,29,0
19750.0,30,0
19800.0,43,0
19850.0,15,0
19900.0,34,0
19950.0,35,0
20000.0,30,0
20050.0,22,0
20100.0,32,0
20150.0,29,0
20200.0,40,0
20250.0,31,0
20300.0,32,0
20350.0,40,0
20400.0,37,0
20450.0,42,0
20500.0,25,0
20550.0,35,0
20600.0,29,0
20650.0,28,0
20700.0,29,0
20750.0,33,0
20800.0,33,0
20850.0,30,0
20900.0,31,0
20950.0,30,0
21000.0,32,0
21050.0,28,0
21100.0,28,0
21150.0,25,0
21200.0,24,0
21250.0,36,0
21300.0,33,0
21350.0,32,0
21400.0,36,0
21450.0,27,0
21500.0,25,0
21550.0,35,0
21600.0,18,0
21650.0,32,0
21700.0,38,0
21750.0,22,0
21800.0,23,0
21850.0,31,0
21900.0,41,0
21950.0,37,0
22000.0,45,0
22050.0,23,0
22100.0,35,0
22150.0,21,0
22200.0,32,0
22250.0,28,0
22300.0,31,0
22350.0,31,0
22400.0,32,0
22450.0,38,0
22500.0,38,0
22550.0,24,0
22600.0,37,0
22650.0,33,0
22700.0,28,0
22750.0,33,0
22800.0,27,0
22850.0,25,0
22900.0,32,0
22950.0,32,0
23000.0,26,0
23050.0,31,0
23100.0,39,0
23150.0,32,0
23200.0,33,0
23250.0,30,0
23300.0,40,0
23350.0,24,0
23400.0,40,0
23450.0,36,0
23500.0,37,0
23550.0,40,0
23600.0,43,0
23650.0,38,0
23700.0,40,0
23750.0,34,0
23800.0,25,0
23850.0,44,0
23900.0,39,0
23950.0,51,0
24000.0,30,0
24050.0,41,0
24100.0,39,0
24150.0,31,0
24200.0,42,0
24250.0,51,0
24300.0,53,0
24350.0,37,0
24400.0,48,0
24450.0,49,0
24500.0,62,0
24550.0,72,0
24600.0,76,0
24650.0,72,0
24700.0,84,0
24750.0,94,0
24800.0,102,0
24850.0,98,0
24900.0,105,0
24950.0,124,0
25000.0,133,0
25050.0,149,0
25100.0,133,0
25150.0,127,0
25200.0,128,0
25250.0,95,0
25300.0,92,0
25350.0,84,0
25400.0,66,0
25450.0,64,0
25500.0,54,0
25550.0,39,0
25600.0,29,0
25650.0,35,0
25700.0,28,0
25750.0,26,0
25800.0,25,0
25850.0,34,0
25900.0,27,0
25950.0,30,0
26000.0,27,0
26050.0,31,0
26100.0,37,0
26150.0,21,0
26200.0,24,0
26250.0,34,0
26300.0,25,0
26350.0,32,0
26400.0,35,0
26450.0,29,0
26500.0,23,0
26550.0,33,0
26600.0,42,0
26650.0,34,0
26700.0,27,0
26750.0,32,0
26800.0,25,0
26850.0,28,0
26900.0,28,0
26950.0,33,0
27000.0,34,0
27050.0,26,0
27100.0,42,0
27150.0,37,0
27200.0,31,0
27250.0,33,0
27300.0,33,0
27350.0,27,0
27400.0,42,0
27450.0,38,0
27500.0,30,0
27550.0,23,0
27600.0,44,0
27650.0,40,0
27700.0,51,0
27750.0,40,0
27800.0,40,0
27850.0,43,0
27900.0,30,0
27950.0,50,0
28000.0,46,0
28050.0,53,0
28100.0,62,0
28150.0,67,0
28200.0,67,0
28250.0,58,0
28300.0,49,0
28350.0,55,0
28400.0,49,0
28450.0,42,0
28500.0,36,0
28550.0,46,0
28600.0,35,0
28650.0,29,0
28700.0,36,0
28750.0,33,0
28800.0,30,0
28850.0,24,0
28900.0,27,0
28950.0,34,0
29000.0,40,0
29050.0,36,0
29100.0,35,0
29150.0,22,0
29200.0,34,0
29250.0,26,0
29300.0,31,0
29350.0,30,0
29400.0,31,0
29450.0,30,0
29500.0,26,0
29550.0,29,0
29600.0,17,0
29650.0,35,0
29700.0,37,0
29750.0,31,0
29800.0,24,0
29850.0,22,0
29900.0,31,0
29950.0,31,0
30000.0,29,0
30050.0,30,0
30100.0,23,0
30150.0,34,0
30200.0,34,0
30250.0,34,0
30300.0,29,0
30350.0,22,0
30400.0,35,0
30450.0,36,0
30500.0,26,0
30550.0,36,0
30600.0,30,0
30650.0,29,0
30700.0,36,0
30750.0,34,0
30800.0,28,0
30850.0,42,0
30900.0,31,0
30950.0,33,0
31000.0,34,0
31050.0,29,0
31100.0,32,0
31150.0,28,0
31200.0,26,0
31250.0,27,0
31300.0,28,0
31350.0,31,0
31400.0,33,0
31450.0,29,0
31500.0,30,0
31550.0,28,0
31600.0,26,0
31650.0,35,0
31700.0,32,0
31750.0,39,0
31800.0,33,0
31850.0,21,0
31900.0,31,0
31950.0,30,0
32000.0,37,0
32050.0,32,0
32100.0,38,0
32150.0,32,0
32200.0,30,0
32250.0,36,0
32300.0,32,0
32350.0,37,0
32400.0,31,0
32450.0,31,0
32500.0,30,0
32550.0,32,0
32600.0,33,0
32650.0,33,0
32700.0,28,0
32750.0,29,0
32800.0,29,0
32850.0,34,0
32900.0,43,0
32950.0,34,0
33000.0,40,0
33050.0,39,0
33100.0,34,0
33150.0,32,0
33200.0,44,0
33250.0,37,0
33300.0,33,0
33350.0,23,0
33400.0,26,0
33450.0,24,0
33500.0,22,0
33550.0,27,0
33600.0,21,0
33650.0,30,0
33700.0,30,0
33750.0,20,0
33800.0,33,0
33850.0,30,0
33900.0,34,0
33950.0,37,0
34000.0,36,0
34050.0,30,0
34100.0,25,0
34150.0,24,0
34200.0,29,0
34250.0,17,0
34300.0,26,0
34350.0,29,0
34400.0,30,0
34450.0,34,0
34500.0,31,0
34550.0,33,0
34600.0,15,0
34650.0,31,0
34700.0,33,0
34750.0,39,0
34800.0,22,0
34850.0,30,0
34900.0,31,0
34950.0,30,0
35000.0,30,0
35050.0,41,0
35100.0,31,0
35150.0,42,0
35200.0,39,0
35250.0,22,0
35300.0,41,0
35350.0,39,0
35400.0,41,0
35450.0,25,0
35500.0,30,0
35550.0,28,0
35600.0,39,0
35650.0,36,0
35700.0,31,0
35750.0,25,0
35800.0,30,0
35850.0,28,0
35900.0,26,0
35950.0,25,0
36000.0,31,0
36050.0,26,0
36100.0,35,0
36150.0,32,0
36200.0,28,0
36250.0,29,0
36300.0,25,0
36350.0,30,0
36400.0,25,0
36450.0,24,0
36500.0,42,0
36550.0,38,0
36600.0,30,0
36650.0,36,0
36700.0,37,0
36750.0,31,0
36800.0,29,0
36850.0,31,0
36900.0,30,0
36950.0,29,0
37000.0,34,0
37050.0,32,0
37100.0,40,0
37150.0,32,0
37200.0,27,0
37250.0,28,0
37300.0,33,0
37350.0,42,0
37400.0,28,0
37450.0,30,0
37500.0,38,0
37550.0,37,0
37600.0,22,0
37650.0,28,0
37700.0,44,0
37750.0,32,0
37800.0,32,0
37850.0,33,0
37900.0,39,0
37950.0,21,0
38000.0,29,0
38050.0,33,0
38100.0,32,0
38150.0,32,0
38200.0,37,0
38250.0,28,0
38300.0,37,0
38350.0,36,0
38400.0,44,0
38450.0,34,0
38500.0,28,0
38550.0,36,0
38600.0,39,0
38650.0,34,0
38700.0,40,0
38750.0,31,0
38800.0,38,0
38850.0,38,0
38900.0,32,0
38950.0,32,0
39000.0,34,0
39050.0,40,0
39100.0,39,0
39150.0,37,0
39200.0,38,0
39250.0,34,0
39300.0,42,0
39350.0,34,0
39400.0,34,0
39450.0,38,0
39500.0,45,0
39550.0,32,0
39600.0,41,0
39650.0,49,0
39700.0,32,0
39750.0,24,0
39800.0,31,0
39850.0,36,0
39900.0,35,0
39950.0,32,0
40000.0,39,0
40050.0,43,0
40100.0,46,0
40150.0,31,0
40200.0,41,0
40250.0,31,0
40300.0,39,0
40350.0,40,0
40400.0,34,0
40450.0,36,0
40500.0,27,0
40550.0,31,0
40600.0,39,0
40650.0,41,0
40700.0,53,0
40750.0,45,0
40800.0,37,0
40850.0,41,0
40900.0,38,0
40950.0,37,0
41000.0,42,0
41050.0,54,0
41100.0,31,0
41150.0,42,0
41200.0,39,0
41250.0,36,0
41300.0,42,0
41350.0,43,0
41400.0,31,0
41450.0,40,0
41500.0,38,0
41550.0,44,0
41600.0,56,0
41650.0,33,0
41700.0,32,0
41750.0,38,0
41800.0,41,0
41850.0,38,0
41900.0,35,0
41950.0,62,0
42000.0,44,0
42050.0,37,0
42100.0,49,0
42150.0,37,0
42200.0,50,0
42250.0,36,0
42300.0,44,0
42350.0,57,0
42400.0,47,0
42450.0,46,0
42500.0,48,0
42550.0,51,0
42600.0,39,0
42650.0,34,0
42700.0,48,0
42750.0,47,0
42800.0,52,0
42850.0,40,0
42900.0,41,0
42950.0,48,0
43000.0,51,0
43050.0,42,0
43100.0,54,0
43150.0,45,0
43200.0,47,0
43250.0,43,0
43300.0,48,0
43350.0,51,0
43400.0,48,0
43450.0,44,0
43500.0,38,0
43550.0,54,0
43600.0,42,0
43650.0,37,0
43700.0,41,0
43750.0,54,0
43800.0,64,0
43850.0,54,0
43900.0,42,0
43950.0,55,0
44000.0,66,0
44050.0,52,0
44100.0,71,0
44150.0,52,0
44200.0,54,0
44250.0,55,0
44300.0,58,0
44350.0,56,0
44400.0,49,0
44450.0,65,0
44500.0,44,0
44550.0,69,0
44600.0,51,0
44650.0,52,0
44700.0,60,0
44750.0,48,0
44800.0,61,0
44850.0,60,0
44900.0,58,0
44950.0,55,0
45000.0,42,0
45050.0,70,0
45100.0,61,0
45150.0,69,0
45200.0,59,0
45250.0,62,0
45300.0,69,0
45350.0,54,0
45400.0,66,0
45450.0,73,0
45500.0,66,0
45550.0,74,0
45600.0,80,0
45650.0,68,0
45700.0,63,0
45750.0,68,0
45800.0,79,0
45850.0,85,0
45900.0,78,0
45950.0,75,0
46000.0,71,0
46050.0,86,0
46100.0,92,0
46150.0,89,0
46200.0,81,0
46250.0,102,0
46300.0,88,0
46350.0,84,0
46400.0,103,0
46450.0,87,0
46500.0,80,0
46550.0,96,0
46600.0,94,0
46650.0,97,0
46700.0,92,0
46750.0,100,0
46800.0,91,0
46850.0,84,0
46900.0,115,0
46950.0,100,0
47000.0,94,0
47050.0,122,0
47100.0,114,0
47150.0,124,0
47200.0,116,0
47250.0,118,0
47300.0,156,0
47350.0,127,0
47400.0,128,0
47450.0,132,0
47500.0,140,0
47550.0,138,0
47600.0,161,0
47650.0,141,0
47700.0,182,0
47750.0,176,0
47800.0,178,0
47850.0,205,0
47900.0,202,0
47950.0,187,0
48000.0,182,0
48050.0,198,0
48100.0,223,0
48150.0,214,0
48200.0,233,0
48250.0,223,0
48300.0,217,0
48350.0,200,0
48400.0,231,0
48450.0,253,0
48500.0,223,0
48550.0,247,0
48600.0,262,0
48650.0,271,0
48700.0,311,0
48750.0,371,0
48800.0,362,0
48850.0,392,0
48900.0,470,0
48950.0,475,0
49000.0,510,0
49050.0,580,0
49100.0,533,0
49150.0,499,0
49200.0,545,0
49250.0,470,0
49300.0,450,0
49350.0,413,0
49400.0,379,0
49450.0,386,0
49500.0,351,0
49550.0,345,0
49600.0,320,0
49650.0,290,0
49700.0,334,0
49750.0,307,0
49800.0,321,0
49850.0,314,0
49900.0,368,0
49950.0,370,0
50000.0,384,0
50050.0,406,0
50100.0,452,0
50150.0,491,0
50200.0,521,0
50250.0,608,0
50300.0,630,0
50350.0,690,0
50400.0,685,0
50450.0,635,0
50500.0,637,0
50550.0,587,0
50600.0,478,0
50650.0,453,0
50700.0,382,0
50750.0,376,0
50800.0,296,0
50850.0,290,0
50900.0,265,0
50950.0,243,0
51000.0,218,0
51050.0,232,0
51100.0,205,0
51150.0,201,0
51200.0,192,0
51250.0,193,0
51300.0,217,0
51350.0,194,0
51400.0,208,0
51450.0,203,0
51500.0,222,0
51550.0,209,0
51600.0,199,0
51650.0,205,0
51700.0,237,0
51750.0,204,0
51800.0,231,0
51850.0,183,0
51900.0,241,0
51950.0,223,0
52000.0,220,0
52050.0,238,0
52100.0,227,0
52150.0,260,0
52200.0,238,0
52250.0,226,0
52300.0,221,0
52350.0,229,0
52400.0,209,0
52450.0,248,0
52500.0,233,0
52550.0,222,0
52600.0,225,0
52650.0,255,0
52700.0,252,0
52750.0,255,0
52800.0,270,0
52850.0,244,0
52900.0,254,0
52950.0,238,0
53000.0,261,0
53050.0,302,0
53100.0,265,0
53150.0,245,0
53200.0,280,0
53250.0,287,0
53300.0,254,0
53350.0,287,0
53400.0,249,0
53450.0,272,0
53500.0,295,0
53550.0,287,0
53600.0,309,0
53650.0,291,0
53700.0,283,0
53750.0,329,0
53800.0,298,0
53850.0,326,0
53900.0,319,0
53950.0,318,0
54000.0,299,0
54050.0,326,0
54100.0,291,0
54150.0,321,0
54200.0,300,0
54250.0,362,0
54300.0,376,0
54350.0,389,0
54400.0,357,0
54450.0,359,0
54500.0,392,0
54550.0,442,0
54600.0,426,0
54650.0,463,0
54700.0,404,0
54750.0,497,0
54800.0,478,0
54850.0,470,0
54900.0,446,0
54950.0,480,0
55000.0,466,0
55050.0,511,0
55100.0,524,0
55150.0,572,0
55200.0,562,0
55250.0,595,0
55300.0,594,0
55350.0,630,0
55400.0,653,0
55450.0,672,0
55500.0,654,0
55550.0,663,0
55600.0,719,0
55650.0,730,0
55700.0,760,0
55750.0,759,0
55800.0,766,0
55850.0,827,0
55900.0,863,0
55950.0,953,0
56000.0,912,0
56050.0,945,0
56100.0,987,0
56150.0,992,0
56200.0,1076,0
56250.0,1008,0
56300.0,1108,0
56350.0,1123,0
56400.0,1222,0
56450.0,1270,0
56500.0,1258,0
56550.0,1326,0
56600.0,1350,0
56650.0,1453,0
56700.0,1504,0
56750.0,1588,0
56800.0,1728,0
56850.0,1749,0
56900.0,1895,0
56950.0,2002,0
57000.0,2174,0
57050.0,2286,0
57100.0,2451,0
57150.0,2463,0
57200.0,2652,0
57250.0,2866,0
57300.0,2984,0
57350.0,3186,0
57400.0,3201,0
57450.0,3418,0
57500.0,3491,0
57550.0,3776,0
57600.0,3978,0
57650.0,4219,0
57700.0,4531,0
57750.0,4957,0
57800.0,5309,0
57850.0,5674,0
57900.0,6193,0
57950.0,6933,0
58000.0,7486,0
58050.0,8595,0
58100.0,9564,0
58150.0,10632,0
58200.0,12024,0
58250.0,13343,0
58300.0,14896,0
58350.0,16635,0
58400.0,18591,0
58450.0,20907,0
58500.0,23278,0
58550.0,26166,0
58600.0,29950,0
58650.0,33988,0
58700.0,38801,0
58750.0,43835,0
58800.0,49125,0
58850.0,53732,0
58900.0,56997,0
58950.0,57784,0
59000.0,57240,0
59050.0,54114,0
59100.0,49102,0
59150.0,43295,0
59200.0,37324,0
59250.0,31720,0
59300.0,27057,0
59350.0,23990,0
59400.0,21585,0
59450.0,21104,0
59500.0,20808,0
59550.0,21727,0
59600.0,23508,0
59650.0,25734,0
59700.0,27767,0
59750.0,31086,0
59800.0,34433,0
59850.0,38722,0
59900.0,44044,0
59950.0,50050,0
60000.0,56942,0
60050.0,65328,0
60100.0,74101,0
60150.0,82072,0
60200.0,89418,0
60250.0,93123,0
60300.0,93493,0
60350.0,90229,0
60400.0,83121,0
60450.0,73635,0
60500.0,61923,0
60550.0,49941,0
60600.0,38364,0
60650.0,29302,0
60700.0,21558,0
60750.0,15973,0
60800.0,11418,0
60850.0,8490,0
60900.0,6476,0
60950.0,5272,0
61000.0,4186,0
61050.0,3591,0
61100.0,3111,0
61150.0,2731,0
61200.0,2347,0
61250.0,2049,0
61300.0,1862,0
61350.0,1628,0
61400.0,1367,0
61450.0,1239,0
61500.0,1117,0
61550.0,1024,0
61600.0,951,0
61650.0,825,0
61700.0,769,0
61750.0,729,0
61800.0,709,0
61850.0,733,0
61900.0,685,0
61950.0,649,0
62000.0,611,0
62050.0,592,0
62100.0,577,0
62150.0,555,0
62200.0,541,0
62250.0,542,0
62300.0,548,0
62350.0,534,0
62400.0,488,0
62450.0,506,0
62500.0,499,0
62550.0,493,0
62600.0,486,0
62650.0,466,0
62700.0,461,0
62750.0,467,0
62800.0,443,0
62850.0,426,0
62900.0,469,0
62950.0,429,0
63000.0,421,0
63050.0,455,0
63100.0,394,0
63150.0,401,0
63200.0,409,0
63250.0,424,0
63300.0,404,0
63350.0,393,0
63400.0,421,0
63450.0,407,0
63500.0,406,0
63550.0,379,0
63600.0,427,0
63650.0,392,0
63700.0,432,0
63750.0,424,0
63800.0,427,0
63850.0,407,0
63900.0,421,0
63950.0,451,0
64000.0,464,0
64050.0,401,0
64100.0,454,0
64150.0,475,0
64200.0,459,0
64250.0,449,0
64300.0,434,0
64350.0,469,0
64400.0,476,0
64450.0,486,0
64500.0,506,0
64550.0,476,0
64600.0,490,0
64650.0,491,0
64700.0,547,0
64750.0,579,0
64800.0,575,0
64850.0,583,0
64900.0,559,0
64950.0,571,0
65000.0,555,0
65050.0,566,0
65100.0,596,0
65150.0,603,0
65200.0,656,0
65250.0,646,0
65300.0,666,0
65350.0,654,0
65400.0,666,0
65450.0,704,0
65500.0,726,0
65550.0,723,0
65600.0,762,0
65650.0,772,0
65700.0,807,0
65750.0,843,0
65800.0,849,0
65850.0,897,0
65900.0,908,0
65950.0,947,0
66000.0,1002,0
66050.0,1087,0
66100.0,1153,0
66150.0,1240,0
66200.0,1278,0
66250.0,1386,0
66300.0,1479,0
66350.0,1500,0
66400.0,1581,0
66450.0,1696,0
66500.0,1790,0
66550.0,1892,0
66600.0,1955,0
66650.0,2105,0
66700.0,2282,0
66750.0,2417,0
66800.0,2547,0
66850.0,2733,0
66900.0,2988,0
66950.0,3131,0
67000.0,3534,0
67050.0,3823,0
67100.0,4233,0
67150.0,4614,0
67200.0,5262,0
67250.0,5850,0
67300.0,6303,0
67350.0,7324,0
67400.0,8164,0
67450.0,9159,0
67500.0,10404,0
67550.0,11669,0
67600.0,13253,0
67650.0,14900,0
67700.0,16512,0
67750.0,18405,0
67800.0,20169,0
67850.0,22093,0
67900.0,23661,0
67950.0,25501,0
68000.0,26811,0
68050.0,27448,0
68100.0,28174,0
68150.0,28080,0
68200.0,27375,0
68250.0,26132,0
68300.0,24432,0
68350.0,21903,0
68400.0,19235,0
68450.0,16574,0
68500.0,13879,0
68550.0,11304,0
68600.0,8980,0
68650.0,7382,0
68700.0,5873,0
68750.0,4733,0
68800.0,3834,0
68850.0,3371,0
68900.0,2910,0
68950.0,2422,0
69000.0,2374,0
69050.0,2215,0
69100.0,2209,0
69150.0,2263,0
69200.0,2319,0
69250.0,2402,0
69300.0,2427,0
69350.0,2630,0
69400.0,2813,0
69450.0,3198,0
69500.0,3392,0
69550.0,3588,0
69600.0,4076,0
69650.0,4632,0
69700.0,4961,0
69750.0,5632,0
69800.0,6077,0
69850.0,6743,0
69900.0,7187,0
69950.0,7711,0
70000.0,8080,0
70050.0,8100,0
70100.0,7945,0
70150.0,7770,0
70200.0,7187,0
70250.0,6587,0
70300.0,5862,0
70350.0,5232,0
70400.0,4451,0
70450.0,3818,0
70500.0,3241,0
70550.0,2641,0
70600.0,2171,0
70650.0,1780,0
70700.0,1427,0
70750.0,1180,0
70800.0,973,0
70850.0,785,0
70900.0,667,0
70950.0,551,0
71000.0,463,0
71050.0,391,0
71100.0,377,0
71150.0,366,0
71200.0,262,0
71250.0,281,0
71300.0,225,0
71350.0,255,0
71400.0,235,0
71450.0,200,0
71500.0,207,0
71550.0,202,0
71600.0,210,0
71650.0,201,0
71700.0,190,0
71750.0,216,0
71800.0,201,0
71850.0,163,0
71900.0,184,0
71950.0,172,0
72000.0,180,0
72050.0,184,0
72100.0,197,0
72150.0,194,0
72200.0,166,0
72250.0,185,0
72300.0,173,0
72350.0,161,0
72400.0,176,0
72450.0,170,0
72500.0,169,0
72550.0,166,0
72600.0,177,0
72650.0,173,0
72700.0,161,0
72750.0,187,0
